theta,fresnel_refl
0.0,0.0194201204259176
0.18016032064128257,0.019420120426957933
0.36032064128256514,0.01942012044256357
0.5404809619238478,0.019420120510191638
0.7206412825651303,0.019420120692281863
0.9008016032064128,0.019420121076273285
1.0809619238476955,0.01942012177462775
1.261122244488978,0.019420122924860013
1.4412825651302605,0.01942012468957464
1.621442885771543,0.01942012725650963
1.8016032064128256,0.019420130838586767
1.9817635270541083,0.019420135673968712
2.161923847695391,0.019420142026122952
2.3420841683366733,0.019420150183892426
2.522244488977956,0.01942016046157311
2.7024048096192383,0.0194201731989983
2.882565130260521,0.019420188761629945
3.062725450901804,0.019420207540656678
3.242885771543086,0.019420229953098903
3.423046092184369,0.019420256441920854
3.603206412825651,0.019420287476149545
3.783366733466934,0.019420323551000856
3.9635270541082166,0.01942036518801265
4.143687374749499,0.019420412935184983
4.323847695390782,0.019420467367127513
4.504008016032064,0.019420529085214078
4.684168336673347,0.019420598717744535
4.864328657314629,0.01942067692011389
5.044488977955912,0.019420764374988818
5.224649298597194,0.019420861792491535
5.404809619238477,0.019420969910391172
5.58496993987976,0.019421089494302653
5.765130260521042,0.01942122133789318
5.9452905811623245,0.01942136626309634
6.125450901803608,0.019421525120333946
6.30561122244489,0.01942169878874568
6.485771543086172,0.019421888176426566
6.665931863727455,0.019422094220672342
6.846092184368738,0.01942231788823296
7.02625250501002,0.019422560175574016
7.206412825651302,0.019422822109146476
7.386573146292585,0.019423104745664548
7.566733466933868,0.01942340917239205
7.74689378757515,0.019423736507437003
7.927054108216433,0.019424087900054905
8.107214428857716,0.019424464530960556
8.287374749498998,0.01942486761264863
8.467535070140281,0.01942529838972299
8.647695390781564,0.019425758139235062
8.827855711422846,0.01942624817103104
9.008016032064129,0.019426769828108453
9.18817635270541,0.019427324486981746
9.368336673346693,0.019427913558057452
9.548496993987976,0.01942853848601863
9.728657314629258,0.01942920075021906
9.908817635270541,0.01942990186508714
10.088977955911824,0.019430643380539594
10.269138276553106,0.019431426882405137
10.449298597194389,0.019432253992858396
10.629458917835672,0.019433126370863966
10.809619238476953,0.01943404571263089
10.989779559118237,0.019435013752077776
11.16993987975952,0.019436032261308415
11.350100200400801,0.019437103051098525
11.530260521042084,0.019438227971393184
11.710420841683367,0.01943940891181567
11.890581162324649,0.019440647802187534
12.070741482965932,0.019441946613060104
12.250901803607215,0.01944330735625775
12.431062124248497,0.019444732085432924
12.61122244488978,0.019446222896633267
12.791382765531063,0.019447781928880838
12.971543086172344,0.0194494113647638
13.151703406813628,0.019451113431040612
13.33186372745491,0.019452890399257072
13.512024048096192,0.019454744586376287
13.692184368737475,0.019456678355421763
13.872344689378759,0.019458694116133997
14.05250501002004,0.019460794325640563
14.232665330661323,0.019462981489140066
14.412825651302605,0.019465258160600137
14.592985971943888,0.019467626943469638
14.77314629258517,0.019470090491405426
14.953306613226452,0.019472651509013846
15.133466933867735,0.019475312752607145
15.313627254509019,0.019478077030975184
15.4937875751503,0.019480947206172623
15.673947895791583,0.019483926194321773
15.854108216432866,0.019487016966431518
16.034268537074148,0.019490222549232526
16.214428857715433,0.019493546026028985
16.394589178356714,0.019496990537567063
16.574749498997996,0.019500559282920767
16.75490981963928,0.019504255520394864
16.935070140280562,0.019508082568445786
17.115230460921843,0.01951204380662045
17.29539078156313,0.019516142676513398
17.47555110220441,0.01952038268274262
17.65571142284569,0.019524767393944317
17.835871743486972,0.019529300443787062
18.016032064128257,0.019533985532005492
18.19619238476954,0.019538826425454077
18.37635270541082,0.019543826959181214
18.556513026052105,0.019548991037524062
18.736673346693387,0.01955432263522441
18.916833667334668,0.01955982579856605
19.096993987975953,0.019565504646533963
19.277154308617234,0.01957136337199574
19.457314629258516,0.019577406242905687
19.6374749498998,0.019583637603531913
19.817635270541082,0.019590061875706916
19.997795591182363,0.019596683560102066
20.17795591182365,0.019603507237526352
20.35811623246493,0.019610537570250018
20.53827655310621,0.019617779303353244
20.718436873747496,0.019625237266100732
20.898597194388778,0.01963291637334221
21.07875751503006,0.019640821626939753
21.258917835671344,0.0196489581172222
21.439078156312625,0.01965733102446705
21.619238476953907,0.019665945620410765
21.79939879759519,0.01967480726978749
21.979559118236473,0.019683921431897143
22.159719438877755,0.019693293662203105
22.33987975951904,0.01970292961396038
22.52004008016032,0.019712835039874442
22.700200400801602,0.019723015793791633
22.880360721442887,0.01973347783242158
23.06052104208417,0.01974422721709225
23.24068136272545,0.019755270115538195
23.420841683366735,0.019766612803722782
23.601002004008016,0.019778261667694867
23.781162324649298,0.019790223205480663
23.961322645290583,0.019802504029011455
24.141482965931864,0.01981511086608785
24.321643286573146,0.019828050562381176
24.50180360721443,0.019841330083472955
24.681963927855712,0.01985495651693284
24.862124248496993,0.01986893707443607
25.04228456913828,0.019883279093921066
25.22244488977956,0.01989799004178787
25.40260521042084,0.019913077515138322
25.582765531062126,0.019928549244058725
25.762925851703407,0.0199444130939459
25.94308617234469,0.01996067706787727
26.123246492985974,0.019977349309025994
26.303406813627255,0.01999443810312211
26.483567134268537,0.0200119518809602
26.66372745490982,0.02002989922095491
26.843887775551103,0.020048288851744988
27.024048096192384,0.02006712965484688
27.20420841683367,0.020086430667358837
27.38436873747495,0.020106201084716446
27.564529058116232,0.020126450263500753
27.744689378757517,0.020147187724299763
27.9248496993988,0.020168423154624658
28.10501002004008,0.02019016641188148
28.285170340681365,0.020212427526399596
28.465330661322646,0.020235216704518087
28.645490981963928,0.02025854433173089
28.82565130260521,0.020282420975892217
29.005811623246494,0.020306857390483206
29.185971943887775,0.020331864517941133
29.366132264529057,0.020357453493052294
29.54629258517034,0.020383635646409933
29.726452905811623,0.020410422507938432
29.906613226452905,0.02043782581048503
30.08677354709419,0.020465857493480656
30.26693386773547,0.020494529706670817
30.447094188376752,0.020523854813918285
30.627254509018037,0.020553845397078944
30.80741482965932,0.020584514259952103
30.9875751503006,0.020615874432306884
31.167735470941885,0.020647939173986156
31.347895791583166,0.020680721979089628
31.528056112224448,0.0207142365802375
31.708216432865733,0.020748496952916525
31.888376753507014,0.02078351731990987
32.068537074148296,0.02081931215581277
32.24869739478958,0.020855896191635272
32.428857715430865,0.02089328441949425
32.60901803607214,0.020931492097396084
32.78917835671343,0.02097053475411224
32.96933867735471,0.02101042819414917
33.14949899799599,0.02105118850281474
33.329659318637276,0.021092832051383063
33.50981963927856,0.021135375502359617
33.68997995991984,0.02117883581484878
33.870140280561124,0.021223230250025794
34.05030060120241,0.021268576376715222
34.23046092184369,0.021314892077078235
34.41062124248497,0.021362195552410593
34.59078156312626,0.021410505329053947
34.770941883767534,0.02145984026442241
34.95110220440882,0.02151021955314701
35.1312625250501,0.02156166273334023
35.31142284569138,0.021614189692983087
35.49158316633267,0.021667820676437372
35.671743486973945,0.021722576291085382
35.85190380761523,0.021778477514100072
36.032064128256515,0.021835545699347692
36.21222444889779,0.02189380258442642
36.39238476953908,0.021953270297842928
36.57254509018036,0.02201397136633025
36.75270541082164,0.02207592872230979
36.932865731462925,0.022139165711499962
37.11302605210421,0.022203706100675083
37.29318637274549,0.0222695740855771
37.47334669338677,0.0223367942989836
37.65350701402806,0.022405391818934983
37.833667334669336,0.02247539217712447
38.01382765531062,0.0225468213674538
38.193987975951906,0.022619705854758487
38.374148296593184,0.022694072583705746
38.55430861723447,0.022769948987868816
38.734468937875754,0.022847362998981317
38.91462925851703,0.022926343056375215
39.094789579158316,0.023006918116606295
39.2749498997996,0.02308911766327093
39.45511022044088,0.02317297171701816
39.635270541082164,0.023258510845760968
39.81543086172345,0.023345766175091008
39.99559118236473,0.023434769398900913
40.17575150300601,0.023525552790218493
40.3559118236473,0.02361814921225706
40.536072144288575,0.023712592129686676
40.71623246492986,0.023808915620130558
40.896392785571145,0.02390715438589129
41.07655310621242,0.024007343765912136
41.25671342685371,0.024109519747977426
41.43687374749499,0.024213718981157824
41.61703406813627,0.024319978788505003
41.797194388777555,0.024428337180001314
41.97735470941884,0.024538832865769154
42.15751503006012,0.02465150526954618
42.3376753507014,0.02476639454243121
42.51783567134269,0.02488354157690697
42.697995991983966,0.02500298802114502
42.87815631262525,0.02512477629359901
43.058316633266536,0.025248949597892208
43.23847695390781,0.0253755519380053
43.4186372745491,0.025504628133770954
43.59879759519038,0.02563622383668125
43.77895791583166,0.025770385546014865
43.959118236472946,0.0259071606252903
44.13927855711423,0.026046597319052234
44.31943887775551,0.026188744769997913
44.499599198396794,0.02633365303645052
44.67975951903808,0.02648137311018711
44.85991983967936,0.02663195693462798
45.04008016032064,0.026785457423395918
45.22024048096193,0.02694192847925186
45.400400801603205,0.0271014250134162
45.58056112224449,0.02726400296528264
45.760721442885774,0.027429719322533637
45.94088176352705,0.027598632141665354
46.12104208416834,0.027770800568931265
46.30120240480962,0.027946284861712307
46.4813627254509,0.028125146410323563
46.661523046092185,0.028307447760266197
46.84168336673347,0.02849325263493339
47.02184368737475,0.028682625958781197
47.20200400801603,0.028875633880972872
47.38216432865732,0.02907234379950708
47.562324649298596,0.02927282438584045
47.74248496993988,0.029477145610014306
47.922645290581166,0.02968537876629686
48.10280561122244,0.029897596499351073
48.28296593186373,0.03011387283093991
48.46312625250501,0.030334283187179692
48.64328657314629,0.030558904426353804
48.823446893787576,0.030787814867297893
49.00360721442886,0.031021094318369136
49.18376753507014,0.031258824107011904
49.363927855711424,0.031501087109932005
49.54408817635271,0.031747967783892814
49.72424849699399,0.03199955219714627
49.90440881763527,0.03225592806151242
50.08456913827656,0.03251718476512061
50.264729458917834,0.0327834134058272
50.44488977955912,0.03305470682532359
50.625050100200404,0.03333115964394908
50.80521042084168,0.03361286829622434
50.98537074148297,0.033899931067119526
51.16553106212425,0.034192448129073884
51.34569138276553,0.034490521579781996
51.525851703406815,0.03479425548076325
51.7060120240481,0.03510375589673124
51.88617234468938,0.03541913093577979
52.06633266533066,0.035740490790403645
52.24649298597195,0.03606794777937086
52.426653306613225,0.036401616390465144
52.60681362725451,0.036741613324117524
52.786973947895795,0.037088057537945154
52.96713426853707,0.037441070292217056
53.14729458917836,0.03780077519626724
53.32745490981964,0.03816729825587411
53.50761523046092,0.03854076792162784
53.687775551102206,0.03892131513830679
53.86793587174349,0.03930907339528343
54.04809619238477,0.039704178777983636
54.228256513026054,0.04010677002042008
54.40841683366734,0.04051698855882386
54.58857715430862,0.040934978586397476
54.7687374749499,0.04136088710921316
54.948897795591186,0.04179486400328161
55.129058116232464,0.04223706207281509
55.30921843687375,0.04268763710971237
55.489378757515034,0.04314674795428934
55.66953907815631,0.043614556557284974
55.8496993987976,0.04409122804316707
56.02985971943888,0.044576930774768216
56.21002004008016,0.04507183641927896
56.390180360721445,0.04557612001562864
56.57034068136273,0.04608996004328256
56.75050100200401,0.04661353849248726
56.93066132264529,0.047147040935994644
57.11082164328658,0.04769065660229632
57.290981963927855,0.0482445784504021
57.47114228456914,0.04880900324619491
57.65130260521042,0.04938413164039678
57.8314629258517,0.04997016824818093
58.01162324649299,0.05056732173046533
58.191783567134266,0.05117580487692411
58.37194388777555,0.05179583469075496
58.552104208416836,0.05242763247523955
58.732264529058114,0.053071423922137276
58.9124248496994,0.05372743920195078
59.09258517034068,0.05439591305610504
59.27274549098196,0.05507708489108243
59.452905811623246,0.0557711988745543
59.63306613226453,0.05647850403355491
59.81322645290581,0.05719925435474124
59.993386773547094,0.05793370888678519
60.17354709418838,0.0586821318449435
60.35370741482966,0.05944479271785518
60.53386773547094,0.0602219663766138
60.71402805611223,0.06101393318616518
60.894188376753505,0.06182097911908261
61.07434869739479,0.06264339587177031
61.254509018036075,0.06348148098315043
61.43466933867735,0.06433553795588758
61.61482965931864,0.06520587638020708
61.79498997995992,0.06609281206036546
61.9751503006012,0.06699666714383037
62.155310621242485,0.06791777025323184
62.33547094188377,0.06885645662114584
62.51563126252505,0.0698130682277729
62.69579158316633,0.07078795394157758
62.87595190380762,0.07178146966295407
63.056112224448896,0.07279397847098601
63.23627254509018,0.07382585077337052
63.416432865731466,0.07487746445957605
63.59659318637274,0.07594920505730988
63.77675350701403,0.07704146589236578
63.95691382765531,0.07815464825193222
64.13707414829659,0.07928916155143727
64.31723446893788,0.08044542350501058
64.49739478957916,0.08162386029964541
64.67755511022044,0.08282490677314536
64.85771543086173,0.08404900659594015
65.03787575150301,0.08529661245686103
65.21803607214429,0.0865681862529668
65.39819639278558,0.08786419928351084
65.57835671342686,0.08918513244814728
65.75851703406813,0.0905314764494741
65.93867735470943,0.09190373200001024
66.1188376753507,0.0933024100337138
66.29899799599198,0.09472803192214477
66.47915831663327,0.09618112969537976
66.65931863727455,0.09766224626779106
66.83947895791583,0.09917193566880503
67.01963927855712,0.10071076327875325
67.1997995991984,0.1022793060699395
67.37995991983968,0.10387815285304584
67.56012024048097,0.10550790452900118
67.74028056112225,0.10716917434644485
67.92044088176353,0.10886258816491867
68.10060120240482,0.11058878472392192
68.2807615230461,0.11234841591797098
68.46092184368737,0.11414214707781044
68.64108216432867,0.11597065725791833
68.82124248496994,0.11783463953046308
69.00140280561122,0.11973480128586733
69.18156312625251,0.1216718645401365
69.36172344689379,0.12364656624912139
69.54188376753507,0.12565965862988338
69.72204408817635,0.12771190948933508
69.90220440881764,0.12980410256033859
70.08236472945892,0.13193703784544442
70.2625250501002,0.13411153196846223
70.44268537074149,0.13632841853405803
70.62284569138276,0.1385885484955768
70.80300601202404,0.14089279053130332
70.98316633266533,0.1432420314293666
71.16332665330661,0.1456371764815114
71.34348697394789,0.14807914988596219
71.52364729458918,0.15056889515961008
71.70380761523046,0.15310737555976045
71.88396793587174,0.15569557451569235
72.06412825651303,0.15833449607027794
72.24428857715431,0.1610251653319236
72.42444889779559,0.16376862893710578
72.60460921843688,0.1665659555237746
72.78476953907816,0.16941823621590957
72.96492985971943,0.17232658511952773
73.14509018036073,0.17529213983044267
73.325250501002,0.17831606195408584
73.50541082164328,0.18139953763771854
73.68557114228457,0.18454377811536418
73.86573146292585,0.18775002026579785
74.04589178356713,0.1910195271839605
74.22605210420842,0.1943535887661508
74.4062124248497,0.19775352230937376
74.58637274549098,0.20122067312524236
74.76653306613227,0.2047564151688245
74.94669338677355,0.2083621516828524
75.12685370741482,0.2120393158577267
75.30701402805612,0.21578937150775165
75.4871743486974,0.2196138137640572
75.66733466933867,0.22351416978468688
75.84749498997996,0.22749199948233056
76.02765531062124,0.2315488962702058
76.20781563126252,0.235686487826616
76.38797595190381,0.2399064368787135
76.56813627254509,0.24421044200602565
76.74829659318637,0.24860023846432405
76.92845691382766,0.25307759903042537
77.10861723446894,0.2576443348685351
77.28877755511022,0.2623022964187831
77.46893787575151,0.26705337430859366
77.64909819639279,0.27189950028757665
77.82925851703406,0.27684264818664844
78.00941883767536,0.2818848349021039
78.18957915831663,0.28702812140539435
78.36973947895791,0.29227461377939995
78.5498997995992,0.2976264642819991
78.73006012024048,0.30308587243776747
78.91022044088176,0.3086550861586876
79.09038076152305,0.31433640289475817
79.27054108216433,0.3201321708154299
79.4507014028056,0.3260447900228459
79.6308617234469,0.3320767137978775
79.81102204408818,0.33823044987998646
79.99118236472945,0.3445085617820042
80.17134268537075,0.3509136701409262
80.35150300601202,0.3574484541058815
80.5316633266533,0.36411565276447966
80.7118236472946,0.37091806660877435
80.89198396793587,0.37785855904212395
81.07214428857715,0.3849400579283052
81.25230460921844,0.39216555718425095
81.43246492985972,0.39953811841785614
81.612625250501,0.40706087261235335
81.79278557114229,0.41473702185880557
81.97294589178357,0.42256984113831997
82.15310621242485,0.4305626801556732
82.33326653306614,0.43871896522607284
82.51342685370741,0.4470422012168562
82.69358717434869,0.4555359735460229
82.87374749498998,0.4642039502395292
83.05390781563126,0.47304988404937215
83.23406813627254,0.48207761463458243
83.41422845691383,0.4912910708073013
83.59438877755511,0.5006942728462096
83.77454909819639,0.5102913348796988
83.95470941883768,0.5200864673412204
84.13486973947896,0.5300839794993749
84.31503006012024,0.540288282065419
84.49519038076153,0.5507038898809433
84.6753507014028,0.5613354246885973
84.85551102204408,0.5721876179888854
85.03567134268538,0.5832653139861316
85.21583166332665,0.594573472626863
85.39599198396793,0.6061171727340166
85.57615230460922,0.617901615240473
85.7563126252505,0.6299321265255812
85.93647294589178,0.6422141618585272
86.11663326653307,0.6547533089525003
86.29679358717435,0.667555291633807
86.47695390781563,0.6806259736302859
86.65711422845692,0.6939713624835038
86.8372745490982,0.7075976135894306
87.01743486973947,0.7215110343725273
87.19759519038077,0.7357180885983217
87.37775551102204,0.7502254008298083
87.55791583166332,0.7650397610332591
87.73807615230461,0.7801681293392201
87.91823647294589,0.7956176409647464
88.09839679358717,0.8113956113032248
88.27855711422846,0.8275095411883564
88.45871743486974,0.84396712233918
88.63887775551102,0.8607762429933649
88.81903807615231,0.8779449937362572
88.99919839679359,0.8954816735335225
89.17935871743487,0.9133947959756199
89.35951903807616,0.9316930957426552
89.53967935871744,0.9503855352985536
89.71983967935871,0.9694813118239636
89.9,0.9889898643976515
